OOIBase32 Version 2.0.0.6 Data File
++++++++++++++++++++++++++++++++++++
Date: 01-23-2012, 21:45:57
User: Valued Ocean Optics Customer
Spectrometer Serial Number: USB2E2917
Spectrometer Channel: Master
Integration Time (msec): 5
Spectra Averaged: 10
Boxcar Smoothing: 5
Correct for Electrical Dark: Enabled
Time Normalized: Disabled
Dual-beam Reference: Disabled
Reference Channel: Master
Temperature: Not acquired
Spectrometer Type: S2000
ADC Type: USB2000
Number of Pixels in File: 2048
Graph Title: 
>>>>>Begin Spectral Data<<<<<
180.30	0.000
180.67	0.000
181.03	171.242
181.40	-188.867
181.77	10668.333
182.14	37.184
182.51	89.945
182.88	-3273.676
183.25	-249.825
183.62	-45.620
183.99	24.670
184.36	-314.759
184.73	166.355
185.10	41.954
185.46	24.469
185.83	138.561
186.20	-1.920
186.57	-80.003
186.94	-81.129
187.31	229.540
187.68	-86.150
188.05	28.985
188.42	12.061
188.78	11.304
189.15	1.176
189.52	16.099
189.89	16.703
190.26	-1.008
190.63	3.244
191.00	4.915
191.37	8.921
191.73	17.267
192.10	14.627
192.47	29.013
192.84	18.293
193.21	15.294
193.58	13.643
193.94	8.211
194.31	-1.747
194.68	0.392
195.05	-12.279
195.42	-37.686
195.79	-44.382
196.15	-29.174
196.52	-35.065
196.89	-46.224
197.26	-41.843
197.63	-43.168
198.00	-39.429
198.36	-19.364
198.73	-23.712
199.10	-14.385
199.47	-4.615
199.84	2.745
200.20	6.680
200.57	-25.348
200.94	-16.202
201.31	-16.164
201.68	-3.014
202.04	-5.341
202.41	2.089
202.78	6.828
203.15	4.261
203.51	-12.325
203.88	-21.380
204.25	-34.052
204.62	2.116
204.98	11.657
205.35	21.073
205.72	18.816
206.09	21.959
206.46	15.377
206.82	8.808
207.19	4.629
207.56	5.958
207.92	-8.885
208.29	-16.222
208.66	-19.107
209.03	-18.728
209.39	-25.658
209.76	-33.862
210.13	-40.877
210.50	-40.437
210.86	-30.843
211.23	-8.051
211.60	-3.486
211.96	11.744
212.33	21.722
212.70	24.836
213.07	15.379
213.43	11.282
213.80	15.132
214.17	6.677
214.53	5.911
214.90	-1.125
215.27	-8.336
215.63	-16.438
216.00	-17.348
216.37	-14.346
216.74	-25.229
217.10	-17.236
217.47	-10.690
217.84	-10.997
218.20	6.006
218.57	6.369
218.94	9.512
219.30	1.759
219.67	10.607
220.04	3.827
220.40	-3.248
220.77	-10.203
221.13	-25.718
221.50	-37.938
221.87	-39.135
222.23	-44.612
222.60	-35.296
222.97	-34.230
223.33	-29.861
223.70	-26.983
224.07	-19.273
224.43	-12.908
224.80	-8.133
225.16	-3.620
225.53	-2.070
225.90	-7.672
226.26	-8.695
226.63	-10.010
226.99	-10.115
227.36	-9.825
227.73	-9.475
228.09	-13.350
228.46	-15.595
228.82	-13.109
229.19	-11.889
229.56	-13.841
229.92	-8.589
230.29	-6.710
230.65	-5.341
231.02	-3.945
231.38	-4.180
231.75	-5.353
232.12	-1.406
232.48	0.989
232.85	-0.235
233.21	-0.288
233.58	2.887
233.94	3.382
234.31	0.395
234.68	-0.794
235.04	-1.043
235.41	-0.657
235.77	0.454
236.14	-0.957
236.50	-1.739
236.87	-2.687
237.23	-4.357
237.60	-5.141
237.96	-5.382
238.33	-2.367
238.69	-2.536
239.06	-3.247
239.42	-2.768
239.79	-2.835
240.15	-2.035
240.52	-2.254
240.88	-1.554
241.25	-0.850
241.61	-0.701
241.98	-0.104
242.34	-0.818
242.71	0.059
243.07	0.775
243.44	1.065
243.80	1.318
244.17	1.112
244.53	1.396
244.90	1.004
245.26	1.104
245.63	1.099
245.99	0.760
246.36	0.968
246.72	0.445
247.09	0.267
247.45	-0.037
247.81	-0.383
248.18	-0.634
248.54	-0.755
248.91	-0.847
249.27	-0.814
249.64	-0.797
250.00	-0.534
250.36	-0.468
250.73	-0.393
251.09	-0.235
251.46	-0.147
251.82	0.129
252.19	0.279
252.55	-0.115
252.91	0.150
253.28	-0.464
253.64	-0.246
254.01	-0.392
254.37	-0.733
254.73	0.094
255.10	0.234
255.46	0.285
255.83	0.118
256.19	0.367
256.55	0.388
256.92	0.124
257.28	0.224
257.65	0.348
258.01	0.394
258.37	0.332
258.74	0.113
259.10	0.075
259.46	0.183
259.83	0.159
260.19	-0.080
260.55	0.061
260.92	0.259
261.28	0.439
261.64	0.051
262.01	-0.180
262.37	-0.079
262.73	-0.339
263.10	-0.537
263.46	-0.442
263.82	-0.339
264.19	-0.146
264.55	-0.329
264.91	-0.346
265.28	-0.212
265.64	-0.134
266.00	-0.171
266.37	-0.348
266.73	-0.164
267.09	0.013
267.46	-0.054
267.82	0.071
268.18	0.121
268.54	0.154
268.91	0.366
269.27	0.284
269.63	0.378
270.00	0.496
270.36	0.585
270.72	0.663
271.08	0.220
271.45	-0.141
271.81	-0.008
272.17	0.086
272.53	0.004
272.90	-0.209
273.26	-0.456
273.62	-0.592
273.98	-0.719
274.35	-0.739
274.71	-0.571
275.07	-0.087
275.43	0.332
275.80	0.312
276.16	0.445
276.52	0.437
276.88	0.370
277.25	0.556
277.61	0.747
277.97	0.917
278.33	0.616
278.69	0.260
279.06	0.261
279.42	-0.002
279.78	-0.169
280.14	-0.536
280.50	-0.525
280.87	-0.425
281.23	-0.250
281.59	-0.336
281.95	-0.394
282.31	-0.093
282.68	0.132
283.04	0.173
283.40	0.353
283.76	0.296
284.12	0.433
284.48	0.416
284.85	0.355
285.21	0.161
285.57	0.238
285.93	0.243
286.29	0.157
286.65	0.145
287.02	0.123
287.38	0.100
287.74	0.237
288.10	0.255
288.46	0.348
288.82	0.317
289.18	0.305
289.54	0.265
289.91	0.592
290.27	0.775
290.63	0.787
290.99	0.666
291.35	0.612
291.71	0.890
292.07	0.733
292.43	0.868
292.79	1.226
293.16	1.399
293.52	1.464
293.88	1.377
294.24	1.479
294.60	1.405
294.96	1.523
295.32	1.498
295.68	1.234
296.04	1.526
296.40	1.442
296.76	1.303
297.12	1.193
297.49	1.279
297.85	1.175
298.21	1.066
298.57	1.185
298.93	1.175
299.29	1.262
299.65	1.244
300.01	1.168
300.37	1.146
300.73	1.379
301.09	1.582
301.45	1.550
301.81	1.567
302.17	1.502
302.53	1.406
302.89	1.411
303.25	1.363
303.61	1.593
303.97	1.485
304.33	1.529
304.69	1.379
305.05	1.296
305.41	1.389
305.77	1.348
306.13	1.436
306.49	1.544
306.85	1.529
307.21	1.619
307.57	1.572
307.93	1.578
308.29	1.696
308.65	1.589
309.01	1.631
309.37	1.681
309.73	1.783
310.09	1.776
310.45	1.769
310.81	1.801
311.17	1.693
311.53	1.566
311.89	1.627
312.25	1.579
312.61	1.678
312.96	1.745
313.32	1.658
313.68	1.518
314.04	1.567
314.40	1.471
314.76	1.664
315.12	1.795
315.48	2.054
315.84	1.988
316.20	2.102
316.56	2.161
316.92	2.055
317.27	1.946
317.63	1.978
317.99	1.977
318.35	2.096
318.71	1.927
319.07	1.855
319.43	1.752
319.79	1.746
320.15	1.562
320.50	1.371
320.86	1.471
321.22	1.592
321.58	1.708
321.94	1.616
322.30	1.505
322.66	1.604
323.01	1.612
323.37	1.536
323.73	1.650
324.09	1.741
324.45	1.822
324.81	1.703
325.17	1.596
325.52	1.538
325.88	1.433
326.24	1.598
326.60	1.609
326.96	1.686
327.31	1.631
327.67	1.565
328.03	1.529
328.39	1.476
328.75	1.532
329.11	1.547
329.46	1.539
329.82	1.749
330.18	1.729
330.54	1.650
330.90	1.603
331.25	1.650
331.61	1.597
331.97	1.615
332.33	1.764
332.68	1.616
333.04	1.627
333.40	1.687
333.76	1.652
334.11	1.574
334.47	1.538
334.83	1.568
335.19	1.692
335.54	1.766
335.90	1.787
336.26	1.717
336.62	1.855
336.97	1.816
337.33	1.659
337.69	1.578
338.05	1.539
338.40	1.588
338.76	1.516
339.12	1.456
339.48	1.411
339.83	1.325
340.19	1.254
340.55	1.227
340.90	1.301
341.26	1.319
341.62	1.374
341.97	1.431
342.33	1.399
342.69	1.435
343.04	1.374
343.40	1.361
343.76	1.385
344.12	1.487
344.47	1.540
344.83	1.432
345.19	1.432
345.54	1.448
345.90	1.442
346.26	1.384
346.61	1.416
346.97	1.430
347.32	1.426
347.68	1.366
348.04	1.340
348.39	1.339
348.75	1.438
349.11	1.420
349.46	1.363
349.82	1.346
350.18	1.405
350.53	1.282
350.89	1.276
351.24	1.266
351.60	1.321
351.96	1.298
352.31	1.248
352.67	1.165
353.02	1.213
353.38	1.169
353.74	1.092
354.09	1.063
354.45	1.118
354.80	1.098
355.16	1.072
355.52	1.031
355.87	0.957
356.23	0.885
356.58	0.953
356.94	0.949
357.29	0.974
357.65	0.982
358.00	0.958
358.36	0.983
358.72	0.991
359.07	1.042
359.43	1.063
359.78	1.149
360.14	1.166
360.49	1.154
360.85	1.076
361.20	1.096
361.56	1.124
361.91	1.088
362.27	1.027
362.62	1.004
362.98	0.905
363.33	0.882
363.69	0.796
364.04	0.786
364.40	0.807
364.75	0.847
365.11	0.846
365.46	0.829
365.82	0.854
366.17	0.839
366.53	0.857
366.88	0.871
367.24	0.893
367.59	0.946
367.95	1.024
368.30	0.954
368.66	0.992
369.01	0.980
369.37	0.960
369.72	0.935
370.08	0.989
370.43	1.006
370.78	1.001
371.14	0.967
371.49	0.953
371.85	0.921
372.20	0.944
372.56	0.930
372.91	0.894
373.26	0.900
373.62	0.898
373.97	0.882
374.33	0.848
374.68	0.874
375.03	0.912
375.39	0.855
375.74	0.826
376.10	0.805
376.45	0.781
376.80	0.797
377.16	0.790
377.51	0.829
377.87	0.815
378.22	0.828
378.57	0.845
378.93	0.819
379.28	0.864
379.63	0.854
379.99	0.876
380.34	0.891
380.70	0.860
381.05	0.887
381.40	0.828
381.76	0.807
382.11	0.799
382.46	0.754
382.82	0.743
383.17	0.757
383.52	0.760
383.88	0.699
384.23	0.681
384.58	0.697
384.94	0.668
385.29	0.698
385.64	0.704
385.99	0.731
386.35	0.802
386.70	0.826
387.05	0.789
387.41	0.808
387.76	0.835
388.11	0.837
388.47	0.841
388.82	0.847
389.17	0.837
389.52	0.829
389.88	0.761
390.23	0.731
390.58	0.701
390.93	0.718
391.29	0.685
391.64	0.689
391.99	0.665
392.34	0.688
392.70	0.683
393.05	0.703
393.40	0.702
393.75	0.751
394.11	0.737
394.46	0.756
394.81	0.692
395.16	0.674
395.52	0.668
395.87	0.654
396.22	0.598
396.57	0.580
396.92	0.537
397.28	0.554
397.63	0.505
397.98	0.513
398.33	0.478
398.68	0.516
399.04	0.533
399.39	0.507
399.74	0.510
400.09	0.526
400.44	0.506
400.80	0.508
401.15	0.482
401.50	0.499
401.85	0.514
402.20	0.532
402.55	0.526
402.90	0.505
403.26	0.531
403.61	0.554
403.96	0.577
404.31	0.584
404.66	0.599
405.01	0.601
405.36	0.606
405.72	0.557
406.07	0.552
406.42	0.546
406.77	0.537
407.12	0.530
407.47	0.531
407.82	0.503
408.17	0.491
408.53	0.474
408.88	0.493
409.23	0.501
409.58	0.482
409.93	0.443
410.28	0.438
410.63	0.436
410.98	0.434
411.33	0.392
411.68	0.375
412.03	0.387
412.38	0.412
412.73	0.394
413.09	0.379
413.44	0.408
413.79	0.461
414.14	0.478
414.49	0.506
414.84	0.505
415.19	0.539
415.54	0.572
415.89	0.579
416.24	0.574
416.59	0.593
416.94	0.622
417.29	0.638
417.64	0.638
417.99	0.654
418.34	0.666
418.69	0.676
419.04	0.681
419.39	0.683
419.74	0.702
420.09	0.698
420.44	0.703
420.79	0.682
421.14	0.674
421.49	0.675
421.84	0.679
422.19	0.674
422.54	0.684
422.89	0.677
423.24	0.682
423.59	0.673
423.94	0.675
424.29	0.666
424.64	0.667
424.99	0.672
425.34	0.663
425.68	0.641
426.03	0.631
426.38	0.603
426.73	0.598
427.08	0.547
427.43	0.528
427.78	0.535
428.13	0.544
428.48	0.560
428.83	0.557
429.18	0.552
429.53	0.566
429.87	0.570
430.22	0.560
430.57	0.572
430.92	0.587
431.27	0.601
431.62	0.591
431.97	0.555
432.32	0.539
432.67	0.537
433.01	0.529
433.36	0.526
433.71	0.512
434.06	0.524
434.41	0.523
434.76	0.538
435.11	0.528
435.45	0.536
435.80	0.559
436.15	0.564
436.50	0.564
436.85	0.585
437.20	0.573
437.54	0.581
437.89	0.580
438.24	0.579
438.59	0.567
438.94	0.570
439.29	0.566
439.63	0.548
439.98	0.551
440.33	0.547
440.68	0.524
441.03	0.534
441.37	0.525
441.72	0.522
442.07	0.520
442.42	0.526
442.76	0.526
443.11	0.531
443.46	0.553
443.81	0.560
444.16	0.557
444.50	0.558
444.85	0.565
445.20	0.571
445.55	0.562
445.89	0.546
446.24	0.537
446.59	0.516
446.94	0.502
447.28	0.473
447.63	0.444
447.98	0.438
448.32	0.434
448.67	0.399
449.02	0.372
449.37	0.359
449.71	0.353
450.06	0.328
450.41	0.341
450.75	0.340
451.10	0.347
451.45	0.352
451.79	0.340
452.14	0.344
452.49	0.337
452.84	0.330
453.18	0.334
453.53	0.331
453.88	0.346
454.22	0.342
454.57	0.346
454.92	0.347
455.26	0.353
455.61	0.372
455.95	0.381
456.30	0.396
456.65	0.418
456.99	0.424
457.34	0.440
457.69	0.463
458.03	0.466
458.38	0.477
458.73	0.490
459.07	0.500
459.42	0.495
459.76	0.482
460.11	0.471
460.46	0.449
460.80	0.456
461.15	0.425
461.49	0.385
461.84	0.362
462.19	0.337
462.53	0.308
462.88	0.272
463.22	0.252
463.57	0.252
463.91	0.261
464.26	0.283
464.61	0.261
464.95	0.267
465.30	0.270
465.64	0.277
465.99	0.270
466.33	0.268
466.68	0.281
467.02	0.303
467.37	0.301
467.71	0.287
468.06	0.273
468.41	0.273
468.75	0.292
469.10	0.280
469.44	0.258
469.79	0.255
470.13	0.254
470.48	0.223
470.82	0.194
471.17	0.169
471.51	0.151
471.86	0.134
472.20	0.125
472.55	0.102
472.89	0.117
473.23	0.130
473.58	0.116
473.92	0.110
474.27	0.125
474.61	0.136
474.96	0.139
475.30	0.130
475.65	0.135
475.99	0.130
476.34	0.127
476.68	0.119
477.02	0.128
477.37	0.133
477.71	0.139
478.06	0.154
478.40	0.185
478.75	0.235
479.09	0.303
479.43	0.361
479.78	0.409
480.12	0.456
480.47	0.497
480.81	0.544
481.15	0.588
481.50	0.620
481.84	0.654
482.19	0.686
482.53	0.715
482.87	0.722
483.22	0.723
483.56	0.716
483.90	0.698
484.25	0.682
484.59	0.657
484.94	0.633
485.28	0.618
485.62	0.592
485.97	0.570
486.31	0.533
486.65	0.518
487.00	0.509
487.34	0.508
487.68	0.502
488.03	0.495
488.37	0.486
488.71	0.483
489.06	0.468
489.40	0.460
489.74	0.431
490.09	0.417
490.43	0.397
490.77	0.366
491.11	0.338
491.46	0.319
491.80	0.297
492.14	0.258
492.49	0.227
492.83	0.198
493.17	0.156
493.51	0.137
493.86	0.115
494.20	0.091
494.54	0.074
494.88	0.066
495.23	0.065
495.57	0.068
495.91	0.077
496.25	0.069
496.60	0.064
496.94	0.062
497.28	0.054
497.62	0.053
497.97	0.051
498.31	0.042
498.65	0.021
498.99	0.002
499.33	-0.026
499.68	-0.038
500.02	-0.039
500.36	-0.049
500.70	-0.060
501.04	-0.060
501.39	-0.078
501.73	-0.072
502.07	-0.080
502.41	-0.075
502.75	-0.081
503.09	-0.065
503.44	-0.063
503.78	-0.067
504.12	-0.056
504.46	-0.044
504.80	-0.045
505.14	-0.033
505.49	-0.046
505.83	-0.019
506.17	-0.011
506.51	-0.004
506.85	-0.015
507.19	0.002
507.53	0.004
507.87	0.001
508.22	0.018
508.56	0.003
508.90	-0.009
509.24	-0.007
509.58	-0.018
509.92	-0.030
510.26	-0.031
510.60	-0.025
510.94	-0.044
511.28	-0.044
511.63	-0.043
511.97	-0.063
512.31	-0.052
512.65	-0.046
512.99	-0.044
513.33	-0.049
513.67	-0.025
514.01	-0.007
514.35	0.007
514.69	0.035
515.03	0.051
515.37	0.066
515.71	0.079
516.05	0.092
516.39	0.100
516.73	0.108
517.07	0.115
517.41	0.115
517.75	0.104
518.09	0.099
518.43	0.082
518.77	0.060
519.11	0.047
519.45	0.030
519.79	0.012
520.13	-0.001
520.47	-0.018
520.81	-0.021
521.15	-0.021
521.49	-0.018
521.83	-0.012
522.17	0.011
522.51	0.034
522.85	0.048
523.19	0.088
523.53	0.141
523.87	0.189
524.21	0.242
524.55	0.284
524.89	0.319
525.23	0.356
525.57	0.382
525.91	0.408
526.25	0.432
526.58	0.452
526.92	0.462
527.26	0.467
527.60	0.467
527.94	0.462
528.28	0.449
528.62	0.434
528.96	0.421
529.30	0.403
529.64	0.381
529.97	0.363
530.31	0.349
530.65	0.328
530.99	0.311
531.33	0.303
531.67	0.296
532.01	0.287
532.35	0.274
532.68	0.268
533.02	0.262
533.36	0.243
533.70	0.236
534.04	0.224
534.38	0.221
534.71	0.200
535.05	0.181
535.39	0.164
535.73	0.165
536.07	0.159
536.41	0.157
536.74	0.172
537.08	0.193
537.42	0.207
537.76	0.231
538.10	0.241
538.43	0.273
538.77	0.292
539.11	0.314
539.45	0.329
539.79	0.350
540.12	0.358
540.46	0.361
540.80	0.356
541.14	0.342
541.47	0.333
541.81	0.327
542.15	0.307
542.49	0.289
542.82	0.268
543.16	0.242
543.50	0.221
543.84	0.194
544.17	0.161
544.51	0.145
544.85	0.137
545.18	0.113
545.52	0.085
545.86	0.064
546.20	0.036
546.53	0.001
546.87	-0.032
547.21	-0.075
547.54	-0.104
547.88	-0.125
548.22	-0.138
548.55	-0.162
548.89	-0.161
549.23	-0.157
549.56	-0.169
549.90	-0.158
550.24	-0.153
550.57	-0.142
550.91	-0.140
551.25	-0.128
551.58	-0.122
551.92	-0.133
552.26	-0.143
552.59	-0.181
552.93	-0.210
553.27	-0.210
553.60	-0.240
553.94	-0.247
554.27	-0.266
554.61	-0.256
554.95	-0.259
555.28	-0.264
555.62	-0.278
555.95	-0.270
556.29	-0.259
556.63	-0.242
556.96	-0.240
557.30	-0.223
557.63	-0.234
557.97	-0.238
558.31	-0.232
558.64	-0.226
558.98	-0.228
559.31	-0.213
559.65	-0.210
559.98	-0.208
560.32	-0.211
560.65	-0.201
560.99	-0.193
561.33	-0.180
561.66	-0.159
562.00	-0.159
562.33	-0.160
562.67	-0.144
563.00	-0.125
563.34	-0.117
563.67	-0.107
564.01	-0.102
564.34	-0.105
564.68	-0.095
565.01	-0.086
565.35	-0.096
565.68	-0.087
566.02	-0.079
566.35	-0.076
566.69	-0.081
567.02	-0.073
567.36	-0.069
567.69	-0.042
568.03	-0.036
568.36	-0.022
568.69	-0.023
569.03	0.008
569.36	0.016
569.70	0.008
570.03	0.020
570.37	0.030
570.70	0.041
571.04	0.043
571.37	0.029
571.70	0.035
572.04	0.017
572.37	0.026
572.71	0.025
573.04	0.022
573.37	0.038
573.71	0.022
574.04	0.021
574.38	-0.000
574.71	-0.003
575.04	0.006
575.38	-0.017
575.71	-0.018
576.05	-0.030
576.38	-0.049
576.71	-0.068
577.05	-0.094
577.38	-0.116
577.71	-0.124
578.05	-0.138
578.38	-0.148
578.71	-0.183
579.05	-0.196
579.38	-0.193
579.71	-0.223
580.05	-0.242
580.38	-0.245
580.71	-0.260
581.05	-0.269
581.38	-0.287
581.71	-0.287
582.05	-0.311
582.38	-0.301
582.71	-0.291
583.04	-0.327
583.38	-0.311
583.71	-0.294
584.04	-0.295
584.38	-0.276
584.71	-0.262
585.04	-0.250
585.37	-0.235
585.71	-0.212
586.04	-0.208
586.37	-0.196
586.70	-0.169
587.04	-0.173
587.37	-0.177
587.70	-0.169
588.03	-0.151
588.37	-0.150
588.70	-0.164
589.03	-0.157
589.36	-0.174
589.69	-0.204
590.03	-0.225
590.36	-0.236
590.69	-0.227
591.02	-0.243
591.35	-0.269
591.69	-0.308
592.02	-0.291
592.35	-0.309
592.68	-0.326
593.01	-0.304
593.35	-0.275
593.68	-0.255
594.01	-0.248
594.34	-0.254
594.67	-0.250
595.00	-0.238
595.34	-0.236
595.67	-0.272
596.00	-0.268
596.33	-0.281
596.66	-0.338
596.99	-0.371
597.32	-0.398
597.65	-0.411
597.99	-0.437
598.32	-0.457
598.65	-0.474
598.98	-0.475
599.31	-0.482
599.64	-0.484
599.97	-0.473
600.30	-0.448
600.63	-0.416
600.96	-0.401
601.30	-0.395
601.63	-0.373
601.96	-0.360
602.29	-0.374
602.62	-0.374
602.95	-0.360
603.28	-0.368
603.61	-0.386
603.94	-0.389
604.27	-0.416
604.60	-0.442
604.93	-0.460
605.26	-0.486
605.59	-0.507
605.92	-0.500
606.25	-0.525
606.58	-0.523
606.91	-0.518
607.24	-0.501
607.57	-0.512
607.90	-0.503
608.23	-0.516
608.56	-0.516
608.89	-0.533
609.22	-0.560
609.55	-0.608
609.88	-0.635
610.21	-0.688
610.54	-0.746
610.87	-0.799
611.20	-0.817
611.53	-0.865
611.86	-0.892
612.19	-0.928
612.52	-0.960
612.85	-0.968
613.18	-0.952
613.51	-0.969
613.84	-0.977
614.17	-0.962
614.49	-0.981
614.82	-0.985
615.15	-0.992
615.48	-1.017
615.81	-1.030
616.14	-1.022
616.47	-1.042
616.80	-1.062
617.13	-1.084
617.46	-1.079
617.78	-1.111
618.11	-1.112
618.44	-1.150
618.77	-1.186
619.10	-1.184
619.43	-1.210
619.76	-1.217
620.09	-1.203
620.41	-1.213
620.74	-1.186
621.07	-1.206
621.40	-1.205
621.73	-1.178
622.06	-1.149
622.38	-1.087
622.71	-1.059
623.04	-1.038
623.37	-0.996
623.70	-0.984
624.02	-0.956
624.35	-0.929
624.68	-0.903
625.01	-0.872
625.34	-0.889
625.66	-0.883
625.99	-0.911
626.32	-0.907
626.65	-0.895
626.98	-0.931
627.30	-0.946
627.63	-0.949
627.96	-0.953
628.29	-0.988
628.61	-1.007
628.94	-1.012
629.27	-1.049
629.60	-1.030
629.92	-1.062
630.25	-1.072
630.58	-1.102
630.91	-1.100
631.23	-1.117
631.56	-1.137
631.89	-1.103
632.21	-1.110
632.54	-1.155
632.87	-1.156
633.19	-1.195
633.52	-1.206
633.85	-1.212
634.18	-1.238
634.50	-1.274
634.83	-1.293
635.16	-1.307
635.48	-1.352
635.81	-1.377
636.14	-1.354
636.46	-1.371
636.79	-1.381
637.11	-1.387
637.44	-1.420
637.77	-1.413
638.09	-1.441
638.42	-1.506
638.75	-1.530
639.07	-1.569
639.40	-1.582
639.73	-1.589
640.05	-1.574
640.38	-1.593
640.70	-1.607
641.03	-1.622
641.36	-1.607
641.68	-1.588
642.01	-1.548
642.33	-1.531
642.66	-1.491
642.98	-1.473
643.31	-1.472
643.64	-1.460
643.96	-1.450
644.29	-1.453
644.61	-1.429
644.94	-1.444
645.26	-1.420
645.59	-1.370
645.91	-1.367
646.24	-1.381
646.56	-1.378
646.89	-1.402
647.22	-1.390
647.54	-1.385
647.87	-1.389
648.19	-1.405
648.52	-1.366
648.84	-1.379
649.17	-1.442
649.49	-1.474
649.82	-1.484
650.14	-1.469
650.47	-1.432
650.79	-1.467
651.11	-1.488
651.44	-1.475
651.76	-1.465
652.09	-1.471
652.41	-1.462
652.74	-1.435
653.06	-1.416
653.39	-1.387
653.71	-1.389
654.04	-1.370
654.36	-1.344
654.68	-1.340
655.01	-1.331
655.33	-1.335
655.66	-1.344
655.98	-1.334
656.30	-1.303
656.63	-1.268
656.95	-1.246
657.28	-1.245
657.60	-1.303
657.92	-1.331
658.25	-1.323
658.57	-1.317
658.90	-1.347
659.22	-1.367
659.54	-1.378
659.87	-1.443
660.19	-1.540
660.51	-1.586
660.84	-1.589
661.16	-1.589
661.48	-1.655
661.81	-1.736
662.13	-1.796
662.45	-1.792
662.78	-1.819
663.10	-1.865
663.42	-1.839
663.75	-1.788
664.07	-1.813
664.39	-1.888
664.72	-1.895
665.04	-1.853
665.36	-1.791
665.69	-1.735
666.01	-1.756
666.33	-1.739
666.65	-1.748
666.98	-1.815
667.30	-1.852
667.62	-1.896
667.94	-1.881
668.27	-1.881
668.59	-1.860
668.91	-1.906
669.23	-1.923
669.56	-1.962
669.88	-1.975
670.20	-2.057
670.52	-2.022
670.85	-2.006
671.17	-1.949
671.49	-1.949
671.81	-1.985
672.13	-2.061
672.46	-2.050
672.78	-2.148
673.10	-2.189
673.42	-2.249
673.74	-2.150
674.07	-2.167
674.39	-2.204
674.71	-2.205
675.03	-2.200
675.35	-2.200
675.67	-2.137
676.00	-2.114
676.32	-2.030
676.64	-1.922
676.96	-1.860
677.28	-1.817
677.60	-1.777
677.92	-1.697
678.25	-1.671
678.57	-1.658
678.89	-1.637
679.21	-1.615
679.53	-1.590
679.85	-1.613
680.17	-1.640
680.49	-1.624
680.81	-1.690
681.13	-1.682
681.46	-1.673
681.78	-1.652
682.10	-1.666
682.42	-1.643
682.74	-1.610
683.06	-1.641
683.38	-1.593
683.70	-1.534
684.02	-1.549
684.34	-1.536
684.66	-1.490
684.98	-1.534
685.30	-1.496
685.62	-1.477
685.94	-1.510
686.26	-1.543
686.58	-1.536
686.90	-1.490
687.22	-1.528
687.54	-1.524
687.86	-1.526
688.18	-1.585
688.50	-1.581
688.82	-1.655
689.14	-1.707
689.46	-1.698
689.78	-1.762
690.10	-1.774
690.42	-1.878
690.74	-1.940
691.06	-1.968
691.38	-1.985
691.70	-2.096
692.02	-2.200
692.34	-2.213
692.66	-2.187
692.98	-2.165
693.30	-2.083
693.62	-2.132
693.94	-2.125
694.26	-2.029
694.57	-1.964
694.89	-1.881
695.21	-1.687
695.53	-1.589
695.85	-1.572
696.17	-1.534
696.49	-1.540
696.81	-1.508
697.13	-1.403
697.44	-1.340
697.76	-1.415
698.08	-1.463
698.40	-1.500
698.72	-1.593
699.04	-1.671
699.36	-1.782
699.67	-1.874
699.99	-1.969
700.31	-2.120
700.63	-2.295
700.95	-2.477
701.27	-2.547
701.58	-2.623
701.90	-2.811
702.22	-2.909
702.54	-2.926
702.86	-2.914
703.17	-2.990
703.49	-2.994
703.81	-3.043
704.13	-3.025
704.45	-3.012
704.76	-2.993
705.08	-3.035
705.40	-3.008
705.72	-3.009
706.03	-3.004
706.35	-2.972
706.67	-2.954
706.99	-3.020
707.30	-3.064
707.62	-3.128
707.94	-3.096
708.26	-3.120
708.57	-3.051
708.89	-2.964
709.21	-2.974
709.53	-3.043
709.84	-3.062
710.16	-3.013
710.48	-2.853
710.79	-2.766
711.11	-2.687
711.43	-2.732
711.74	-2.747
712.06	-2.732
712.38	-2.720
712.69	-2.642
713.01	-2.498
713.33	-2.466
713.64	-2.419
713.96	-2.433
714.28	-2.287
714.59	-2.232
714.91	-2.065
715.23	-1.896
715.54	-1.751
715.86	-1.662
716.17	-1.559
716.49	-1.547
716.81	-1.487
717.12	-1.586
717.44	-1.571
717.76	-1.670
718.07	-1.684
718.39	-1.845
718.70	-1.955
719.02	-2.188
719.33	-2.346
719.65	-2.488
719.97	-2.550
720.28	-2.689
720.60	-2.588
720.91	-2.471
721.23	-2.496
721.54	-2.416
721.86	-2.264
722.17	-2.296
722.49	-2.219
722.81	-2.189
723.12	-2.241
723.44	-2.260
723.75	-2.173
724.07	-2.185
724.38	-2.315
724.70	-2.305
725.01	-2.299
725.33	-2.295
725.64	-2.166
725.96	-2.175
726.27	-2.199
726.59	-2.155
726.90	-2.173
727.22	-2.168
727.53	-2.168
727.84	-2.164
728.16	-2.209
728.47	-2.237
728.79	-2.312
729.10	-2.443
729.42	-2.453
729.73	-2.435
730.05	-2.400
730.36	-2.443
730.67	-2.482
730.99	-2.526
731.30	-2.620
731.62	-2.727
731.93	-2.888
732.24	-3.000
732.56	-3.022
732.87	-3.209
733.19	-3.279
733.50	-3.420
733.81	-3.483
734.13	-3.521
734.44	-3.629
734.76	-3.623
735.07	-3.654
735.38	-3.686
735.70	-3.674
736.01	-3.757
736.32	-3.678
736.64	-3.621
736.95	-3.671
737.26	-3.778
737.58	-3.992
737.89	-4.021
738.20	-4.198
738.52	-4.249
738.83	-4.300
739.14	-4.422
739.45	-4.432
739.77	-4.474
740.08	-4.510
740.39	-4.741
740.71	-4.734
741.02	-4.628
741.33	-4.692
741.64	-4.713
741.96	-4.938
742.27	-5.139
742.58	-5.265
742.90	-5.282
743.21	-5.472
743.52	-5.761
743.83	-5.466
744.14	-5.634
744.46	-5.804
744.77	-5.828
745.08	-5.793
745.39	-5.653
745.71	-5.557
746.02	-5.502
746.33	-5.591
746.64	-5.419
746.95	-5.315
747.27	-5.498
747.58	-5.350
747.89	-5.159
748.20	-5.240
748.51	-5.371
748.82	-5.193
749.14	-5.142
749.45	-4.999
749.76	-5.021
750.07	-5.199
750.38	-5.157
750.69	-4.947
751.01	-4.957
751.32	-4.994
751.63	-4.976
751.94	-4.849
752.25	-4.918
752.56	-4.934
752.87	-4.985
753.18	-4.975
753.49	-4.879
753.81	-5.019
754.12	-5.111
754.43	-4.993
754.74	-4.989
755.05	-4.801
755.36	-4.650
755.67	-4.497
755.98	-4.210
756.29	-4.008
756.60	-3.704
756.91	-3.248
757.22	-2.764
757.53	-2.491
757.84	-2.166
758.15	-1.744
758.46	-1.362
758.77	-1.035
759.09	-0.713
759.40	-0.635
759.71	-0.384
760.02	-0.253
760.33	-0.258
760.64	-0.173
760.95	-0.127
761.26	-0.098
761.57	-0.039
761.88	-0.178
762.18	-0.278
762.49	-0.387
762.80	-0.441
763.11	-0.685
763.42	-0.844
763.73	-1.027
764.04	-1.474
764.35	-1.803
764.66	-2.184
764.97	-2.568
765.28	-2.821
765.59	-3.232
765.90	-3.639
766.21	-3.782
766.52	-4.126
766.83	-4.337
767.14	-4.641
767.44	-4.636
767.75	-4.990
768.06	-5.077
768.37	-5.484
768.68	-5.550
768.99	-5.870
769.30	-6.066
769.61	-6.683
769.91	-6.717
770.22	-6.978
770.53	-7.066
770.84	-6.926
771.15	-6.483
771.46	-6.547
771.77	-6.653
772.07	-6.784
772.38	-6.887
772.69	-7.112
773.00	-7.075
773.31	-6.772
773.61	-7.029
773.92	-7.313
774.23	-7.674
774.54	-7.835
774.85	-8.093
775.15	-7.866
775.46	-7.938
775.77	-7.646
776.08	-7.524
776.39	-7.418
776.69	-7.544
777.00	-7.170
777.31	-6.933
777.62	-6.591
777.92	-6.800
778.23	-6.590
778.54	-6.797
778.85	-6.784
779.15	-6.531
779.46	-6.430
779.77	-6.421
780.07	-6.666
780.38	-6.799
780.69	-6.788
781.00	-7.209
781.30	-7.429
781.61	-7.456
781.92	-7.275
782.22	-7.224
782.53	-7.289
782.84	-7.129
783.14	-6.854
783.45	-6.475
783.76	-6.086
784.06	-5.974
784.37	-5.394
784.68	-4.918
784.98	-4.490
785.29	-4.267
785.60	-4.280
785.90	-4.168
786.21	-4.220
786.51	-4.260
786.82	-4.660
787.13	-4.574
787.43	-4.469
787.74	-4.855
788.04	-4.839
788.35	-5.213
788.66	-5.469
788.96	-5.371
789.27	-5.372
789.57	-5.471
789.88	-5.302
790.19	-4.807
790.49	-5.058
790.80	-4.974
791.10	-4.589
791.41	-4.727
791.71	-4.566
792.02	-4.081
792.32	-4.053
792.63	-4.068
792.93	-3.752
793.24	-4.357
793.54	-4.914
793.85	-4.634
794.15	-4.601
794.46	-5.023
794.76	-4.954
795.07	-5.161
795.37	-5.379
795.68	-5.390
795.98	-5.369
796.29	-5.200
796.59	-4.803
796.90	-4.799
797.20	-5.043
797.51	-4.962
797.81	-4.846
798.12	-4.632
798.42	-4.209
798.72	-4.111
799.03	-4.217
799.33	-4.298
799.64	-4.665
799.94	-4.566
800.25	-3.917
800.55	-3.840
800.85	-4.064
801.16	-3.809
801.46	-3.914
801.77	-4.504
802.07	-4.824
802.37	-5.035
802.68	-5.068
802.98	-4.955
803.28	-5.172
803.59	-5.521
803.89	-5.465
804.20	-5.390
804.50	-5.524
804.80	-5.583
805.11	-5.127
805.41	-4.946
805.71	-4.387
806.02	-4.542
806.32	-4.468
806.62	-4.322
806.93	-4.213
807.23	-4.081
807.53	-4.361
807.83	-3.786
808.14	-3.635
808.44	-3.696
808.74	-3.405
809.05	-3.262
809.35	-2.729
809.65	-2.844
809.95	-2.674
810.26	-2.784
810.56	-2.731
810.86	-2.084
811.16	-2.456
811.47	-2.068
811.77	-1.668
812.07	-1.686
812.37	-1.914
812.68	-1.926
812.98	-1.340
813.28	-1.610
813.58	-1.581
813.88	-1.938
814.19	-1.949
814.49	-2.155
814.79	-2.608
815.09	-2.674
815.39	-2.658
815.70	-2.347
816.00	-2.343
816.30	-2.693
816.60	-2.307
816.90	-1.553
817.20	-1.105
817.50	-0.828
817.81	-0.287
818.11	0.109
818.41	0.433
818.71	0.676
819.01	0.781
819.31	1.006
819.61	1.127
819.92	1.178
820.22	1.163
820.52	1.289
820.82	1.366
821.12	1.405
821.42	1.499
821.72	1.628
822.02	1.619
822.32	1.582
822.62	1.586
822.92	1.612
823.22	1.656
823.52	1.682
823.83	1.609
824.13	1.529
824.43	1.388
824.73	1.321
825.03	1.130
825.33	1.103
825.63	1.229
825.93	1.135
826.23	1.125
826.53	0.955
826.83	1.063
827.13	0.991
827.43	0.969
827.73	1.149
828.03	1.026
828.33	0.861
828.63	0.727
828.93	0.520
829.23	0.357
829.53	0.165
829.83	0.451
830.13	-0.076
830.42	0.017
830.72	0.085
831.02	0.029
831.32	-0.182
831.62	-0.171
831.92	-0.070
832.22	0.091
832.52	0.202
832.82	0.538
833.12	0.479
833.42	0.653
833.72	0.804
834.01	0.864
834.31	0.916
834.61	1.212
834.91	1.487
835.21	1.499
835.51	1.318
835.81	1.394
836.11	1.125
836.40	0.808
836.70	1.002
837.00	0.599
837.30	0.153
837.60	-0.016
837.90	-0.488
838.19	-0.966
838.49	-1.247
838.79	-1.252
839.09	-1.574
839.39	-2.262
839.68	-2.028
839.98	-2.901
840.28	-3.322
840.58	-3.218
840.88	-3.679
841.17	-3.909
841.47	-4.018
841.77	-4.032
842.07	-4.142
842.36	-4.666
842.66	-4.634
842.96	-4.165
843.26	-4.569
843.55	-4.714
843.85	-6.197
844.15	-6.287
844.45	-5.400
844.74	-5.090
845.04	-5.205
845.34	-5.070
845.63	-6.211
845.93	-6.378
846.23	-8.349
846.53	-8.282
846.82	-8.959
847.12	-9.019
847.42	-10.737
847.71	-12.157
848.01	-11.635
848.31	-11.054
848.60	-12.856
848.90	-13.524
849.19	-12.546
849.49	-12.028
849.79	-12.167
850.08	-10.340
850.38	-8.916
850.68	-5.945
850.97	-6.304
851.27	-7.576
851.56	-8.988
851.86	-9.908
852.16	-8.107
852.45	-9.338
852.75	-9.634
853.04	-9.992
853.34	-10.791
853.64	-10.879
853.93	-10.655
854.23	-8.976
854.52	-7.796
854.82	-6.880
855.11	-4.626
855.41	-4.653
855.70	-4.072
856.00	-3.965
856.30	-3.373
856.59	-4.798
856.89	-4.796
857.18	-6.540
857.48	-8.156
857.77	-10.965
858.07	-11.595
858.36	-12.253
858.66	-13.257
858.95	-11.708
859.25	-12.070
859.54	-12.140
859.84	-11.691
860.13	-12.298
860.42	-11.866
860.72	-10.959
861.01	-9.698
861.31	-9.600
861.60	-10.994
861.90	-11.551
862.19	-14.254
862.49	-15.213
862.78	-12.814
863.07	-12.332
863.37	-13.094
863.66	-12.873
863.96	-13.010
864.25	-12.930
864.54	-11.971
864.84	-11.508
865.13	-10.299
865.43	-8.557
865.72	-6.799
866.01	-2.021
866.31	-18.439
866.60	-12.412
866.89	3.578
>>>>>End Spectral Data<<<<<
