OOIBase32 Version 2.0.0.6 Data File
++++++++++++++++++++++++++++++++++++
Date: 01-18-2012, 22:58:12
User: Valued Ocean Optics Customer
Spectrometer Serial Number: USB2E2917
Spectrometer Channel: Master
Integration Time (msec): 5
Spectra Averaged: 10
Boxcar Smoothing: 5
Correct for Electrical Dark: Enabled
Time Normalized: Disabled
Dual-beam Reference: Disabled
Reference Channel: Master
Temperature: Not acquired
Spectrometer Type: S2000
ADC Type: USB2000
Number of Pixels in File: 2048
Graph Title: 
>>>>>Begin Spectral Data<<<<<
180.30	0.000
180.67	0.000
181.03	-1856.936
181.40	-81.171
181.77	28.376
182.14	-601.643
182.51	78.327
182.88	50.593
183.25	220.096
183.62	57.530
183.99	47.002
184.36	-139.869
184.73	105.260
185.10	249.255
185.46	264.761
185.83	92.293
186.20	-46.251
186.57	-145.813
186.94	15.006
187.31	158.557
187.68	125.338
188.05	27.156
188.42	36.296
188.78	39.473
189.15	35.629
189.52	45.086
189.89	41.159
190.26	33.149
190.63	27.617
191.00	48.078
191.37	63.771
191.73	60.711
192.10	46.240
192.47	38.542
192.84	44.245
193.21	41.479
193.58	34.814
193.94	44.676
194.31	40.161
194.68	42.953
195.05	23.190
195.42	24.119
195.79	21.013
196.15	15.046
196.52	17.238
196.89	5.838
197.26	-16.786
197.63	-27.460
198.00	-42.721
198.36	-19.488
198.73	-15.687
199.10	-29.319
199.47	-47.629
199.84	-43.503
200.20	-43.213
200.57	-55.492
200.94	-38.984
201.31	-3.787
201.68	8.458
202.04	14.265
202.41	8.784
202.78	8.904
203.15	3.158
203.51	10.775
203.88	11.942
204.25	34.658
204.62	38.089
204.98	36.851
205.35	28.903
205.72	32.407
206.09	26.848
206.46	19.037
206.82	14.825
207.19	30.933
207.56	30.411
207.92	36.137
208.29	29.313
208.66	37.372
209.03	39.232
209.39	32.003
209.76	13.440
210.13	7.145
210.50	8.650
210.86	5.336
211.23	13.121
211.60	30.963
211.96	26.898
212.33	19.275
212.70	9.871
213.07	17.058
213.43	23.150
213.80	40.261
214.17	55.437
214.53	59.551
214.90	55.556
215.27	42.991
215.63	36.383
216.00	35.032
216.37	26.807
216.74	26.050
217.10	6.963
217.47	-10.925
217.84	-28.153
218.20	-41.492
218.57	-49.893
218.94	-37.895
219.30	-32.047
219.67	-25.093
220.04	-22.667
220.40	-22.264
220.77	-26.053
221.13	-18.584
221.50	-12.651
221.87	-14.584
222.23	-11.329
222.60	-3.176
222.97	-6.939
223.33	-5.773
223.70	-10.031
224.07	-8.348
224.43	-3.370
224.80	-1.234
225.16	1.186
225.53	2.637
225.90	2.859
226.26	3.599
226.63	3.195
226.99	4.951
227.36	4.528
227.73	4.390
228.09	3.304
228.46	3.481
228.82	4.069
229.19	3.070
229.56	2.094
229.92	3.579
230.29	1.622
230.65	0.073
231.02	-0.772
231.38	-1.263
231.75	-2.779
232.12	-1.832
232.48	-2.678
232.85	-3.565
233.21	-2.422
233.58	-1.418
233.94	-2.088
234.31	-0.810
234.68	1.175
235.04	0.088
235.41	-0.293
235.77	2.008
236.14	0.177
236.50	-1.047
236.87	-1.222
237.23	-0.845
237.60	-1.963
237.96	-3.054
238.33	-1.724
238.69	-1.250
239.06	-1.150
239.42	-0.143
239.79	-0.262
240.15	1.335
240.52	2.481
240.88	2.861
241.25	3.113
241.61	3.388
241.98	3.658
242.34	3.010
242.71	2.344
243.07	2.334
243.44	1.939
243.80	2.007
244.17	1.510
244.53	1.627
244.90	1.572
245.26	1.252
245.63	1.431
245.99	1.760
246.36	1.851
246.72	2.251
247.09	2.602
247.45	2.342
247.81	2.260
248.18	2.498
248.54	2.444
248.91	2.366
249.27	2.370
249.64	2.180
250.00	1.597
250.36	2.133
250.73	1.827
251.09	0.977
251.46	1.214
251.82	1.059
252.19	1.246
252.55	0.912
252.91	0.764
253.28	0.888
253.64	0.882
254.01	1.110
254.37	1.248
254.73	1.202
255.10	1.226
255.46	1.482
255.83	1.246
256.19	0.700
256.55	0.521
256.92	0.513
257.28	0.697
257.65	0.979
258.01	1.160
258.37	1.094
258.74	1.281
259.10	1.719
259.46	1.819
259.83	1.879
260.19	2.245
260.55	2.519
260.92	2.469
261.28	2.379
261.64	2.231
262.01	2.015
262.37	1.840
262.73	1.699
263.10	1.726
263.46	1.637
263.82	1.531
264.19	1.660
264.55	1.676
264.91	2.113
265.28	2.127
265.64	2.326
266.00	2.522
266.37	2.191
266.73	1.745
267.09	1.572
267.46	1.094
267.82	0.951
268.18	0.577
268.54	0.211
268.91	-0.019
269.27	-0.174
269.63	-0.425
270.00	-0.719
270.36	-0.444
270.72	0.160
271.08	-0.081
271.45	0.396
271.81	0.651
272.17	0.622
272.53	0.726
272.90	0.878
273.26	0.726
273.62	0.889
273.98	1.256
274.35	1.204
274.71	0.453
275.07	0.157
275.43	-0.648
275.80	-0.504
276.16	-0.411
276.52	-0.763
276.88	-0.988
277.25	-0.576
277.61	-0.757
277.97	-0.648
278.33	-0.739
278.69	-0.216
279.06	0.513
279.42	1.320
279.78	1.128
280.14	1.119
280.50	1.477
280.87	1.540
281.23	1.535
281.59	1.721
281.95	1.679
282.31	1.787
282.68	1.917
283.04	1.741
283.40	1.271
283.76	1.303
284.12	1.169
284.48	1.113
284.85	1.176
285.21	0.958
285.57	0.846
285.93	0.754
286.29	0.643
286.65	0.416
287.02	0.454
287.38	0.923
287.74	0.957
288.10	1.063
288.46	0.918
288.82	0.824
289.18	0.981
289.54	1.139
289.91	1.067
290.27	1.202
290.63	1.192
290.99	1.199
291.35	1.232
291.71	1.670
292.07	1.979
292.43	2.357
292.79	2.573
293.16	2.601
293.52	2.506
293.88	2.620
294.24	2.588
294.60	2.945
294.96	3.050
295.32	3.135
295.68	3.018
296.04	3.115
296.40	3.304
296.76	3.477
297.12	3.579
297.49	3.777
297.85	3.923
298.21	4.246
298.57	4.251
298.93	4.406
299.29	4.554
299.65	4.927
300.01	5.076
300.37	5.249
300.73	5.297
301.09	5.451
301.45	5.710
301.81	5.895
302.17	6.179
302.53	6.391
302.89	6.537
303.25	6.629
303.61	6.591
303.97	6.765
304.33	6.950
304.69	7.250
305.05	7.390
305.41	7.668
305.77	7.717
306.13	7.572
306.49	7.571
306.85	7.548
307.21	7.497
307.57	7.467
307.93	7.282
308.29	7.329
308.65	7.253
309.01	7.344
309.37	7.029
309.73	7.084
310.09	7.075
310.45	7.168
310.81	7.201
311.17	7.345
311.53	7.365
311.89	7.585
312.25	7.377
312.61	7.437
312.96	7.446
313.32	7.695
313.68	7.757
314.04	7.949
314.40	7.779
314.76	7.794
315.12	7.788
315.48	7.897
315.84	7.934
316.20	7.931
316.56	8.004
316.92	8.071
317.27	8.139
317.63	8.323
317.99	8.308
318.35	8.573
318.71	8.529
319.07	8.514
319.43	8.354
319.79	8.273
320.15	8.350
320.50	8.220
320.86	8.033
321.22	8.075
321.58	8.012
321.94	8.140
322.30	8.148
322.66	8.355
323.01	8.395
323.37	8.542
323.73	8.722
324.09	8.948
324.45	9.181
324.81	9.519
325.17	9.559
325.52	9.627
325.88	9.526
326.24	9.629
326.60	9.661
326.96	9.790
327.31	9.939
327.67	9.958
328.03	10.088
328.39	10.133
328.75	10.105
329.11	10.336
329.46	10.436
329.82	10.734
330.18	10.772
330.54	10.898
330.90	11.077
331.25	11.107
331.61	11.077
331.97	10.947
332.33	10.990
332.68	10.986
333.04	10.962
333.40	11.084
333.76	10.992
334.11	11.042
334.47	10.943
334.83	10.938
335.19	11.038
335.54	11.179
335.90	11.270
336.26	11.347
336.62	11.408
336.97	11.242
337.33	11.080
337.69	11.247
338.05	11.306
338.40	11.307
338.76	11.218
339.12	11.161
339.48	10.961
339.83	11.013
340.19	11.079
340.55	11.124
340.90	11.166
341.26	11.161
341.62	10.924
341.97	10.896
342.33	10.982
342.69	10.959
343.04	11.010
343.40	11.149
343.76	11.173
344.12	11.153
344.47	11.111
344.83	11.078
345.19	11.146
345.54	11.302
345.90	11.211
346.26	11.055
346.61	11.144
346.97	11.083
347.32	11.052
347.68	10.850
348.04	10.856
348.39	10.960
348.75	11.059
349.11	11.041
349.46	10.898
349.82	10.908
350.18	11.015
350.53	11.009
350.89	11.063
351.24	11.050
351.60	11.197
351.96	11.100
352.31	10.987
352.67	10.878
353.02	10.896
353.38	10.980
353.74	11.010
354.09	10.979
354.45	10.820
354.80	10.785
355.16	10.760
355.52	10.654
355.87	10.710
356.23	10.728
356.58	10.767
356.94	10.650
357.29	10.537
357.65	10.564
358.00	10.663
358.36	10.668
358.72	10.625
359.07	10.613
359.43	10.582
359.78	10.434
360.14	10.470
360.49	10.431
360.85	10.448
361.20	10.470
361.56	10.427
361.91	10.336
362.27	10.350
362.62	10.340
362.98	10.449
363.33	10.511
363.69	10.541
364.04	10.498
364.40	10.506
364.75	10.488
365.11	10.439
365.46	10.382
365.82	10.400
366.17	10.350
366.53	10.305
366.88	10.194
367.24	10.166
367.59	10.176
367.95	10.039
368.30	10.060
368.66	10.072
369.01	10.110
369.37	10.093
369.72	9.994
370.08	10.041
370.43	9.996
370.78	9.963
371.14	9.936
371.49	9.908
371.85	9.947
372.20	9.906
372.56	9.848
372.91	9.847
373.26	9.893
373.62	9.928
373.97	9.873
374.33	9.903
374.68	9.845
375.03	9.827
375.39	9.784
375.74	9.762
376.10	9.696
376.45	9.692
376.80	9.655
377.16	9.614
377.51	9.556
377.87	9.549
378.22	9.536
378.57	9.483
378.93	9.488
379.28	9.477
379.63	9.530
379.99	9.555
380.34	9.557
380.70	9.571
381.05	9.525
381.40	9.515
381.76	9.492
382.11	9.462
382.46	9.538
382.82	9.493
383.17	9.493
383.52	9.475
383.88	9.490
384.23	9.532
384.58	9.471
384.94	9.398
385.29	9.368
385.64	9.347
385.99	9.248
386.35	9.243
386.70	9.216
387.05	9.175
387.41	9.126
387.76	9.023
388.11	8.916
388.47	8.935
388.82	8.972
389.17	9.009
389.52	8.995
389.88	9.093
390.23	9.075
390.58	9.115
390.93	9.039
391.29	9.004
391.64	9.004
391.99	8.967
392.34	8.876
392.70	8.825
393.05	8.868
393.40	8.870
393.75	8.849
394.11	8.838
394.46	8.870
394.81	8.939
395.16	8.921
395.52	8.942
395.87	8.939
396.22	8.941
396.57	8.983
396.92	8.872
397.28	8.830
397.63	8.763
397.98	8.744
398.33	8.658
398.68	8.606
399.04	8.591
399.39	8.551
399.74	8.547
400.09	8.539
400.44	8.453
400.80	8.453
401.15	8.396
401.50	8.397
401.85	8.329
402.20	8.305
402.55	8.275
402.90	8.234
403.26	8.212
403.61	8.200
403.96	8.177
404.31	8.152
404.66	8.139
405.01	8.141
405.36	8.083
405.72	8.077
406.07	8.032
406.42	8.015
406.77	7.984
407.12	7.928
407.47	7.891
407.82	7.867
408.17	7.895
408.53	7.863
408.88	7.846
409.23	7.872
409.58	7.849
409.93	7.841
410.28	7.810
410.63	7.846
410.98	7.869
411.33	7.874
411.68	7.867
412.03	7.833
412.38	7.816
412.73	7.797
413.09	7.775
413.44	7.754
413.79	7.726
414.14	7.720
414.49	7.705
414.84	7.674
415.19	7.625
415.54	7.608
415.89	7.587
416.24	7.569
416.59	7.563
416.94	7.534
417.29	7.537
417.64	7.522
417.99	7.507
418.34	7.470
418.69	7.446
419.04	7.452
419.39	7.463
419.74	7.472
420.09	7.450
420.44	7.442
420.79	7.433
421.14	7.408
421.49	7.387
421.84	7.367
422.19	7.361
422.54	7.364
422.89	7.346
423.24	7.298
423.59	7.275
423.94	7.282
424.29	7.278
424.64	7.252
424.99	7.256
425.34	7.275
425.68	7.299
426.03	7.291
426.38	7.277
426.73	7.287
427.08	7.303
427.43	7.276
427.78	7.249
428.13	7.199
428.48	7.229
428.83	7.187
429.18	7.171
429.53	7.180
429.87	7.184
430.22	7.191
430.57	7.195
430.92	7.199
431.27	7.203
431.62	7.191
431.97	7.206
432.32	7.176
432.67	7.174
433.01	7.159
433.36	7.121
433.71	7.104
434.06	7.087
434.41	7.076
434.76	7.040
435.11	7.050
435.45	7.058
435.80	7.088
436.15	7.098
436.50	7.108
436.85	7.087
437.20	7.079
437.54	7.088
437.89	7.064
438.24	7.057
438.59	7.050
438.94	7.026
439.29	7.012
439.63	6.962
439.98	6.945
440.33	6.939
440.68	6.930
441.03	6.927
441.37	6.910
441.72	6.915
442.07	6.893
442.42	6.897
442.76	6.888
443.11	6.884
443.46	6.883
443.81	6.870
444.16	6.854
444.50	6.857
444.85	6.855
445.20	6.838
445.55	6.846
445.89	6.856
446.24	6.863
446.59	6.852
446.94	6.850
447.28	6.853
447.63	6.847
447.98	6.859
448.32	6.855
448.67	6.868
449.02	6.872
449.37	6.839
449.71	6.796
450.06	6.756
450.41	6.751
450.75	6.710
451.10	6.690
451.45	6.665
451.79	6.628
452.14	6.612
452.49	6.572
452.84	6.557
453.18	6.543
453.53	6.552
453.88	6.550
454.22	6.552
454.57	6.562
454.92	6.548
455.26	6.573
455.61	6.584
455.95	6.593
456.30	6.589
456.65	6.575
456.99	6.572
457.34	6.590
457.69	6.585
458.03	6.545
458.38	6.526
458.73	6.514
459.07	6.495
459.42	6.473
459.76	6.437
460.11	6.415
460.46	6.407
460.80	6.395
461.15	6.342
461.49	6.326
461.84	6.330
462.19	6.329
462.53	6.307
462.88	6.295
463.22	6.272
463.57	6.281
463.91	6.252
464.26	6.239
464.61	6.226
464.95	6.243
465.30	6.236
465.64	6.245
465.99	6.216
466.33	6.207
466.68	6.181
467.02	6.195
467.37	6.166
467.71	6.179
468.06	6.155
468.41	6.145
468.75	6.107
469.10	6.080
469.44	6.050
469.79	6.064
470.13	6.065
470.48	6.090
470.82	6.047
471.17	6.029
471.51	6.025
471.86	6.018
472.20	5.994
472.55	5.969
472.89	5.976
473.23	5.979
473.58	5.949
473.92	5.951
474.27	5.913
474.61	5.913
474.96	5.902
475.30	5.874
475.65	5.862
475.99	5.858
476.34	5.857
476.68	5.834
477.02	5.801
477.37	5.800
477.71	5.787
478.06	5.775
478.40	5.756
478.75	5.787
479.09	5.810
479.43	5.845
479.78	5.877
480.12	5.914
480.47	5.927
480.81	5.969
481.15	5.990
481.50	6.016
481.84	6.038
482.19	6.071
482.53	6.085
482.87	6.093
483.22	6.092
483.56	6.086
483.90	6.073
484.25	6.066
484.59	6.042
484.94	6.020
485.28	5.989
485.62	5.956
485.97	5.922
486.31	5.886
486.65	5.854
487.00	5.817
487.34	5.787
487.68	5.753
488.03	5.732
488.37	5.718
488.71	5.690
489.06	5.660
489.40	5.653
489.74	5.640
490.09	5.624
490.43	5.607
490.77	5.588
491.11	5.573
491.46	5.556
491.80	5.529
492.14	5.497
492.49	5.483
492.83	5.453
493.17	5.420
493.51	5.389
493.86	5.340
494.20	5.313
494.54	5.304
494.88	5.287
495.23	5.278
495.57	5.284
495.91	5.272
496.25	5.261
496.60	5.270
496.94	5.252
497.28	5.225
497.62	5.209
497.97	5.182
498.31	5.162
498.65	5.150
498.99	5.138
499.33	5.113
499.68	5.090
500.02	5.058
500.36	5.045
500.70	5.036
501.04	5.012
501.39	5.018
501.73	5.018
502.07	5.012
502.41	4.983
502.75	4.970
503.09	4.953
503.44	4.942
503.78	4.955
504.12	4.944
504.46	4.933
504.80	4.952
505.14	4.938
505.49	4.926
505.83	4.915
506.17	4.943
506.51	4.944
506.85	4.952
507.19	4.968
507.53	4.958
507.87	4.952
508.22	4.952
508.56	4.957
508.90	4.967
509.24	4.976
509.58	4.965
509.92	4.929
510.26	4.886
510.60	4.880
510.94	4.850
511.28	4.857
511.63	4.840
511.97	4.835
512.31	4.796
512.65	4.786
512.99	4.765
513.33	4.757
513.67	4.753
514.01	4.784
514.35	4.782
514.69	4.793
515.03	4.789
515.37	4.793
515.71	4.806
516.05	4.820
516.39	4.819
516.73	4.828
517.07	4.825
517.41	4.846
517.75	4.832
518.09	4.831
518.43	4.824
518.77	4.801
519.11	4.787
519.45	4.766
519.79	4.743
520.13	4.696
520.47	4.682
520.81	4.666
521.15	4.626
521.49	4.623
521.83	4.588
522.17	4.586
522.51	4.601
522.85	4.618
523.19	4.642
523.53	4.668
523.87	4.722
524.21	4.747
524.55	4.784
524.89	4.815
525.23	4.826
525.57	4.856
525.91	4.891
526.25	4.898
526.58	4.901
526.92	4.906
527.26	4.913
527.60	4.915
527.94	4.910
528.28	4.896
528.62	4.877
528.96	4.868
529.30	4.850
529.64	4.813
529.97	4.793
530.31	4.775
530.65	4.742
530.99	4.728
531.33	4.691
531.67	4.670
532.01	4.644
532.35	4.627
532.68	4.615
533.02	4.594
533.36	4.582
533.70	4.569
534.04	4.544
534.38	4.511
534.71	4.484
535.05	4.463
535.39	4.427
535.73	4.409
536.07	4.390
536.41	4.379
536.74	4.377
537.08	4.359
537.42	4.370
537.76	4.382
538.10	4.382
538.43	4.380
538.77	4.409
539.11	4.435
539.45	4.458
539.79	4.479
540.12	4.479
540.46	4.471
540.80	4.475
541.14	4.464
541.47	4.459
541.81	4.474
542.15	4.454
542.49	4.430
542.82	4.403
543.16	4.375
543.50	4.350
543.84	4.329
544.17	4.326
544.51	4.303
544.85	4.292
545.18	4.282
545.52	4.248
545.86	4.225
546.20	4.210
546.53	4.187
546.87	4.172
547.21	4.131
547.54	4.080
547.88	4.046
548.22	4.018
548.55	3.982
548.89	3.944
549.23	3.915
549.56	3.954
549.90	3.941
550.24	3.940
550.57	3.934
550.91	3.928
551.25	3.916
551.58	3.926
551.92	3.943
552.26	3.941
552.59	3.938
552.93	3.961
553.27	3.904
553.60	3.868
553.94	3.830
554.27	3.806
554.61	3.801
554.95	3.850
555.28	3.815
555.62	3.788
555.95	3.777
556.29	3.766
556.63	3.741
556.96	3.758
557.30	3.785
557.63	3.817
557.97	3.803
558.31	3.804
558.64	3.780
558.98	3.791
559.31	3.798
559.65	3.787
559.98	3.808
560.32	3.810
560.65	3.824
560.99	3.795
561.33	3.753
561.66	3.774
562.00	3.792
562.33	3.794
562.67	3.788
563.00	3.772
563.34	3.779
563.67	3.803
564.01	3.812
564.34	3.784
564.68	3.788
565.01	3.834
565.35	3.821
565.68	3.809
566.02	3.800
566.35	3.769
566.69	3.769
567.02	3.779
567.36	3.747
567.69	3.726
568.03	3.742
568.36	3.755
568.69	3.753
569.03	3.783
569.36	3.792
569.70	3.818
570.03	3.839
570.37	3.838
570.70	3.825
571.04	3.812
571.37	3.833
571.70	3.817
572.04	3.799
572.37	3.790
572.71	3.755
573.04	3.752
573.37	3.724
573.71	3.716
574.04	3.724
574.38	3.708
574.71	3.686
575.04	3.659
575.38	3.658
575.71	3.639
576.05	3.602
576.38	3.592
576.71	3.562
577.05	3.542
577.38	3.511
577.71	3.482
578.05	3.483
578.38	3.491
578.71	3.486
579.05	3.473
579.38	3.462
579.71	3.466
580.05	3.439
580.38	3.416
580.71	3.411
581.05	3.426
581.38	3.421
581.71	3.413
582.05	3.395
582.38	3.380
582.71	3.366
583.04	3.375
583.38	3.351
583.71	3.361
584.04	3.405
584.38	3.417
584.71	3.437
585.04	3.461
585.37	3.458
585.71	3.477
586.04	3.487
586.37	3.509
586.70	3.509
587.04	3.516
587.37	3.540
587.70	3.522
588.03	3.522
588.37	3.524
588.70	3.506
589.03	3.510
589.36	3.491
589.69	3.485
590.03	3.477
590.36	3.481
590.69	3.527
591.02	3.474
591.35	3.465
591.69	3.456
592.02	3.447
592.35	3.452
592.68	3.455
593.01	3.464
593.35	3.469
593.68	3.469
594.01	3.471
594.34	3.447
594.67	3.491
595.00	3.501
595.34	3.491
595.67	3.482
596.00	3.477
596.33	3.462
596.66	3.466
596.99	3.455
597.32	3.438
597.65	3.433
597.99	3.441
598.32	3.471
598.65	3.436
598.98	3.453
599.31	3.430
599.64	3.410
599.97	3.416
600.30	3.432
600.63	3.426
600.96	3.428
601.30	3.458
601.63	3.462
601.96	3.434
602.29	3.476
602.62	3.449
602.95	3.475
603.28	3.491
603.61	3.509
603.94	3.499
604.27	3.539
604.60	3.530
604.93	3.486
605.26	3.454
605.59	3.442
605.92	3.433
606.25	3.454
606.58	3.439
606.91	3.431
607.24	3.416
607.57	3.402
607.90	3.394
608.23	3.408
608.56	3.417
608.89	3.433
609.22	3.421
609.55	3.409
609.88	3.403
610.21	3.397
610.54	3.372
610.87	3.370
611.20	3.360
611.53	3.329
611.86	3.290
612.19	3.221
612.52	3.199
612.85	3.186
613.18	3.130
613.51	3.136
613.84	3.152
614.17	3.179
614.49	3.128
614.82	3.145
615.15	3.126
615.48	3.196
615.81	3.256
616.14	3.283
616.47	3.274
616.80	3.305
617.13	3.273
617.46	3.257
617.78	3.258
618.11	3.267
618.44	3.222
618.77	3.213
619.10	3.155
619.43	3.167
619.76	3.119
620.09	3.148
620.41	3.141
620.74	3.184
621.07	3.181
621.40	3.207
621.73	3.234
622.06	3.254
622.38	3.273
622.71	3.274
623.04	3.262
623.37	3.289
623.70	3.250
624.02	3.266
624.35	3.219
624.68	3.240
625.01	3.207
625.34	3.232
625.66	3.238
625.99	3.252
626.32	3.280
626.65	3.274
626.98	3.277
627.30	3.315
627.63	3.275
627.96	3.324
628.29	3.296
628.61	3.309
628.94	3.285
629.27	3.277
629.60	3.213
629.92	3.173
630.25	3.170
630.58	3.174
630.91	3.149
631.23	3.158
631.56	3.128
631.89	3.121
632.21	3.103
632.54	3.083
632.87	3.059
633.19	3.100
633.52	3.099
633.85	3.097
634.18	3.042
634.50	3.044
634.83	3.023
635.16	2.972
635.48	2.940
635.81	2.873
636.14	2.868
636.46	2.911
636.79	2.884
637.11	2.875
637.44	2.858
637.77	2.867
638.09	2.852
638.42	2.859
638.75	2.906
639.07	2.931
639.40	2.982
639.73	2.999
640.05	2.951
640.38	2.943
640.70	2.940
641.03	2.918
641.36	2.907
641.68	2.881
642.01	2.919
642.33	2.869
642.66	2.848
642.98	2.842
643.31	2.777
643.64	2.759
643.96	2.777
644.29	2.778
644.61	2.771
644.94	2.760
645.26	2.754
645.59	2.707
645.91	2.745
646.24	2.737
646.56	2.740
646.89	2.761
647.22	2.728
647.54	2.740
647.87	2.727
648.19	2.718
648.52	2.716
648.84	2.755
649.17	2.734
649.49	2.726
649.82	2.700
650.14	2.718
650.47	2.679
650.79	2.742
651.11	2.700
651.44	2.721
651.76	2.707
652.09	2.701
652.41	2.616
652.74	2.576
653.06	2.522
653.39	2.500
653.71	2.412
654.04	2.445
654.36	2.393
654.68	2.403
655.01	2.378
655.33	2.423
655.66	2.426
655.98	2.410
656.30	2.444
656.63	2.463
656.95	2.481
657.28	2.510
657.60	2.477
657.92	2.470
658.25	2.420
658.57	2.357
658.90	2.325
659.22	2.245
659.54	2.264
659.87	2.230
660.19	2.179
660.51	2.159
660.84	2.096
661.16	2.098
661.48	2.098
661.81	2.114
662.13	2.137
662.45	2.105
662.78	2.144
663.10	2.057
663.42	2.112
663.75	2.091
664.07	2.084
664.39	2.053
664.72	1.989
665.04	1.936
665.36	1.838
665.69	1.770
666.01	1.674
666.33	1.670
666.65	1.736
666.98	1.641
667.30	1.681
667.62	1.654
667.94	1.700
668.27	1.715
668.59	1.706
668.91	1.759
669.23	1.758
669.56	1.802
669.88	1.705
670.20	1.694
670.52	1.674
670.85	1.597
671.17	1.539
671.49	1.455
671.81	1.447
672.13	1.391
672.46	1.324
672.78	1.324
673.10	1.251
673.42	1.258
673.74	1.169
674.07	1.108
674.39	1.076
674.71	1.060
675.03	1.026
675.35	0.998
675.67	0.986
676.00	1.015
676.32	0.999
676.64	1.025
676.96	1.073
677.28	1.117
677.60	1.181
677.92	1.148
678.25	1.179
678.57	1.237
678.89	1.203
679.21	1.214
679.53	1.191
679.85	1.261
680.17	1.297
680.49	1.270
680.81	1.281
681.13	1.276
681.46	1.327
681.78	1.313
682.10	1.246
682.42	1.234
682.74	1.240
683.06	1.273
683.38	1.212
683.70	1.213
684.02	1.208
684.34	1.143
684.66	1.188
684.98	1.246
685.30	1.293
685.62	1.357
685.94	1.363
686.26	1.381
686.58	1.378
686.90	1.379
687.22	1.330
687.54	1.320
687.86	1.413
688.18	1.293
688.50	1.166
688.82	1.064
689.14	0.966
689.46	0.975
689.78	0.889
690.10	0.809
690.42	0.718
690.74	0.659
691.06	0.642
691.38	0.453
691.70	0.431
692.02	0.379
692.34	0.277
692.66	0.210
692.98	0.085
693.30	0.084
693.62	0.023
693.94	-0.014
694.26	-0.023
694.57	-0.086
694.89	-0.031
695.21	-0.019
695.53	0.136
695.85	0.247
696.17	0.337
696.49	0.434
696.81	0.420
697.13	0.476
697.44	0.494
697.76	0.499
698.08	0.519
698.40	0.503
698.72	0.402
699.04	0.206
699.36	0.109
699.67	-0.003
699.99	-0.196
700.31	-0.268
700.63	-0.453
700.95	-0.568
701.27	-0.728
701.58	-0.896
701.90	-1.073
702.22	-1.108
702.54	-1.183
702.86	-1.280
703.17	-1.397
703.49	-1.467
703.81	-1.632
704.13	-1.668
704.45	-1.669
704.76	-1.738
705.08	-1.793
705.40	-1.783
705.72	-1.865
706.03	-1.816
706.35	-1.880
706.67	-1.858
706.99	-1.799
707.30	-1.810
707.62	-1.856
707.94	-1.914
708.26	-1.862
708.57	-1.867
708.89	-1.919
709.21	-1.822
709.53	-1.775
709.84	-1.750
710.16	-1.747
710.48	-1.752
710.79	-1.755
711.11	-1.746
711.43	-1.761
711.74	-1.794
712.06	-1.666
712.38	-1.516
712.69	-1.516
713.01	-1.505
713.33	-1.378
713.64	-1.325
713.96	-1.281
714.28	-1.003
714.59	-0.834
714.91	-0.669
715.23	-0.539
715.54	-0.521
715.86	-0.399
716.17	-0.393
716.49	-0.483
716.81	-0.549
717.12	-0.492
717.44	-0.335
717.76	-0.497
718.07	-0.589
718.39	-0.766
718.70	-0.859
719.02	-0.985
719.33	-1.169
719.65	-1.197
719.97	-1.202
720.28	-1.317
720.60	-1.592
720.91	-1.896
721.23	-1.886
721.54	-1.982
721.86	-1.876
722.17	-1.932
722.49	-1.774
722.81	-1.842
723.12	-1.720
723.44	-1.686
723.75	-1.517
724.07	-1.349
724.38	-1.139
724.70	-1.128
725.01	-0.977
725.33	-1.016
725.64	-0.960
725.96	-1.136
726.27	-1.058
726.59	-1.146
726.90	-1.208
727.22	-1.387
727.53	-1.385
727.84	-1.505
728.16	-1.560
728.47	-1.509
728.79	-1.605
729.10	-1.723
729.42	-1.843
729.73	-2.083
730.05	-2.261
730.36	-2.368
730.67	-2.407
730.99	-2.545
731.30	-2.758
731.62	-3.033
731.93	-3.348
732.24	-3.530
732.56	-3.635
732.87	-3.778
733.19	-3.916
733.50	-4.122
733.81	-4.258
734.13	-4.481
734.44	-4.605
734.76	-4.818
735.07	-4.864
735.38	-4.938
735.70	-5.082
736.01	-5.172
736.32	-5.258
736.64	-5.399
736.95	-5.279
737.26	-5.466
737.58	-5.392
737.89	-5.601
738.20	-5.400
738.52	-5.559
738.83	-5.838
739.14	-6.049
739.45	-6.357
739.77	-6.336
740.08	-6.390
740.39	-6.848
740.71	-6.900
741.02	-7.425
741.33	-7.497
741.64	-7.927
741.96	-7.963
742.27	-8.290
742.58	-8.390
742.90	-8.512
743.21	-8.942
743.52	-9.259
743.83	-9.333
744.14	-9.366
744.46	-9.555
744.77	-9.771
745.08	-9.905
745.39	-10.088
745.71	-10.152
746.02	-10.061
746.33	-9.905
746.64	-9.682
746.95	-9.371
747.27	-9.413
747.58	-9.622
747.89	-9.396
748.20	-9.339
748.51	-9.368
748.82	-9.246
749.14	-9.027
749.45	-9.034
749.76	-9.256
750.07	-9.404
750.38	-9.448
750.69	-9.425
751.01	-9.441
751.32	-9.298
751.63	-9.385
751.94	-9.308
752.25	-9.394
752.56	-9.374
752.87	-9.370
753.18	-9.122
753.49	-9.235
753.81	-9.054
754.12	-8.719
754.43	-8.479
754.74	-8.409
755.05	-8.042
755.36	-7.655
755.67	-7.205
755.98	-6.841
756.29	-6.425
756.60	-5.789
756.91	-4.923
757.22	-4.626
757.53	-4.054
757.84	-3.271
758.15	-2.417
758.46	-1.797
758.77	-1.246
759.09	-0.895
759.40	-0.265
759.71	0.381
760.02	0.654
760.33	0.706
760.64	1.222
760.95	1.402
761.26	1.494
761.57	1.377
761.88	1.343
762.18	1.167
762.49	1.102
762.80	0.846
763.11	0.499
763.42	0.160
763.73	0.075
764.04	-0.446
764.35	-0.827
764.66	-1.640
764.97	-2.283
765.28	-3.124
765.59	-3.812
765.90	-4.690
766.21	-5.560
766.52	-6.656
766.83	-7.528
767.14	-8.331
767.44	-9.030
767.75	-9.707
768.06	-9.765
768.37	-10.559
768.68	-10.652
768.99	-11.047
769.30	-11.176
769.61	-11.635
769.91	-11.571
770.22	-11.673
770.53	-12.308
770.84	-12.510
771.15	-13.132
771.46	-13.724
771.77	-13.587
772.07	-13.789
772.38	-13.623
772.69	-13.873
773.00	-13.455
773.31	-13.680
773.61	-13.684
773.92	-13.537
774.23	-14.049
774.54	-13.591
774.85	-13.428
775.15	-13.345
775.46	-13.578
775.77	-13.609
776.08	-13.995
776.39	-14.170
776.69	-14.168
777.00	-14.356
777.31	-14.026
777.62	-13.497
777.92	-13.454
778.23	-13.547
778.54	-13.396
778.85	-13.786
779.15	-13.619
779.46	-13.268
779.77	-13.478
780.07	-13.565
780.38	-13.863
780.69	-14.357
781.00	-14.775
781.30	-15.158
781.61	-14.481
781.92	-14.364
782.22	-13.638
782.53	-13.716
782.84	-13.585
783.14	-13.457
783.45	-13.731
783.76	-13.087
784.06	-12.839
784.37	-12.474
784.68	-12.012
784.98	-12.422
785.29	-11.962
785.60	-11.350
785.90	-11.348
786.21	-10.951
786.51	-10.291
786.82	-9.335
787.13	-8.972
787.43	-8.615
787.74	-8.437
788.04	-8.596
788.35	-8.288
788.66	-8.561
788.96	-9.086
789.27	-9.038
789.57	-9.044
789.88	-9.362
790.19	-9.468
790.49	-9.647
790.80	-9.390
791.10	-9.126
791.41	-8.600
791.71	-8.689
792.02	-8.495
792.32	-8.100
792.63	-7.652
792.93	-7.683
793.24	-7.476
793.54	-7.746
793.85	-7.395
794.15	-7.913
794.46	-7.999
794.76	-8.675
795.07	-8.563
795.37	-8.781
795.68	-8.918
795.98	-9.347
796.29	-9.378
796.59	-9.650
796.90	-9.810
797.20	-10.009
797.51	-9.406
797.81	-9.612
798.12	-8.970
798.42	-8.972
798.72	-8.665
799.03	-8.790
799.33	-9.009
799.64	-8.452
799.94	-8.470
800.25	-8.330
800.55	-8.771
800.85	-9.070
801.16	-9.369
801.46	-9.579
801.77	-9.361
802.07	-9.562
802.37	-9.161
802.68	-9.272
802.98	-9.593
803.28	-9.384
803.59	-9.122
803.89	-9.324
804.20	-9.716
804.50	-9.665
804.80	-9.641
805.11	-9.978
805.41	-9.928
805.71	-9.827
806.02	-9.294
806.32	-9.916
806.62	-9.457
806.93	-9.228
807.23	-8.723
807.53	-7.726
807.83	-6.935
808.14	-6.571
808.44	-6.434
808.74	-6.223
809.05	-6.311
809.35	-6.093
809.65	-5.308
809.95	-5.421
810.26	-6.195
810.56	-6.061
810.86	-6.647
811.16	-6.720
811.47	-6.480
811.77	-6.048
812.07	-5.221
812.37	-5.279
812.68	-4.949
812.98	-5.089
813.28	-5.093
813.58	-4.095
813.88	-4.453
814.19	-4.054
814.49	-3.837
814.79	-4.134
815.09	-3.467
815.39	-4.293
815.70	-3.842
816.00	-3.579
816.30	-3.034
816.60	-2.385
816.90	-2.349
817.20	-1.843
817.50	-1.151
817.81	-0.322
818.11	0.136
818.41	0.517
818.71	1.294
819.01	1.735
819.31	1.948
819.61	2.149
819.92	2.327
820.22	2.639
820.52	2.882
820.82	2.899
821.12	2.953
821.42	3.084
821.72	3.132
822.02	3.208
822.32	3.240
822.62	3.359
822.92	3.251
823.22	3.172
823.52	3.116
823.83	3.130
824.13	3.230
824.43	3.185
824.73	3.204
825.03	3.044
825.33	2.848
825.63	2.709
825.93	2.593
826.23	2.762
826.53	2.910
826.83	2.728
827.13	2.502
827.43	2.126
827.73	1.952
828.03	1.560
828.33	1.595
828.63	1.421
828.93	1.365
829.23	0.714
829.53	0.754
829.83	0.106
830.13	0.205
830.42	0.261
830.72	0.376
831.02	0.032
831.32	0.110
831.62	0.137
831.92	0.205
832.22	0.157
832.52	0.878
832.82	0.614
833.12	0.849
833.42	0.730
833.72	0.656
834.01	0.420
834.31	0.608
834.61	0.831
834.91	1.076
835.21	1.034
835.51	0.757
835.81	-0.220
836.11	-0.111
836.40	-0.214
836.70	0.328
837.00	0.191
837.30	0.523
837.60	-0.032
837.90	0.061
838.19	-1.244
838.49	-2.191
838.79	-2.773
839.09	-2.724
839.39	-3.748
839.68	-4.143
839.98	-6.519
840.28	-6.797
840.58	-7.887
840.88	-7.833
841.17	-7.981
841.47	-7.715
841.77	-6.893
842.07	-6.132
842.36	-6.850
842.66	-7.966
842.96	-9.193
843.26	-8.593
843.55	-9.401
843.85	-8.372
844.15	-7.981
844.45	-10.110
844.74	-11.460
845.04	-11.505
845.34	-11.672
845.63	-9.679
845.93	-9.053
846.23	-10.947
846.53	-10.452
846.82	-9.604
847.12	-10.848
847.42	-14.502
847.71	-14.420
848.01	-13.406
848.31	-13.762
848.60	-13.119
848.90	-17.295
849.19	-16.532
849.49	-15.283
849.79	-16.121
850.08	-18.786
850.38	-15.807
850.68	-14.764
850.97	-12.850
851.27	-13.305
851.56	-16.773
851.86	-17.289
852.16	-14.155
852.45	-15.195
852.75	-16.290
853.04	-12.591
853.34	-12.253
853.64	-13.024
853.93	-10.888
854.23	-14.070
854.52	-14.724
854.82	-11.777
855.11	-15.310
855.41	-19.147
855.70	-17.941
856.00	-15.649
856.30	-20.087
856.59	-18.208
856.89	-20.550
857.18	-20.293
857.48	-21.690
857.77	-20.584
858.07	-19.762
858.36	-15.009
858.66	-11.995
858.95	-14.580
859.25	-12.749
859.54	-11.479
859.84	-12.237
860.13	-13.038
860.42	-15.275
860.72	-15.228
861.01	-16.480
861.31	-16.331
861.60	-18.536
861.90	-15.383
862.19	-14.648
862.49	-15.374
862.78	-14.588
863.07	-16.499
863.37	-13.910
863.66	-13.888
863.96	-13.804
864.25	-13.752
864.54	-14.257
864.84	-13.233
865.13	-14.610
865.43	-11.402
865.72	-17.271
866.01	-5.175
866.31	5.287
866.60	2.357
866.89	1.370
>>>>>End Spectral Data<<<<<
